###	C:\Users\witti\Desktop\RefSpectra\pos\PC16_0_18_1_MH_40eV.mgf
###	G:\20190719_LipidStdsPos\PC_MH_1-A,3_01_27235.d\analysis.baf
###	PC_MH_1-A,3_01_27235.d
###	Instrument: maXis
###	Manufacturer: Bruker
###    PC_MH
###    PeakWidth 5.00, MiniumIntensity 100, S/N 1Apply threshold 0, Threshold 10
###    Retain Residuals no, Create neutrally no,
###    FullScan Parameters: AdductIon (+)+H (-)-H, LowMass 250, HighMass 4000, MaxCharge charge decon 10, MinPeaks 3
###    Perf. isotope decon yes, Max Charge Istopic decon 5, MW agreement 0.00, Abund. cutoff 2.00, Envelope cutoff 75.00
###    MaxRes   Parameters: AdductIon (+)+H (-)-H, LowMass 250, HighMass 4000 
###    Perf. isotope decon yes, Max Charge Istopic decon 5, Abund. cutoff 2.00
###    MSn      Parameters: AdductIon (+)+H (-)-H, LowMass 50, HighMass 2000 
###    Perf. isotope decon yes, Max Charge Istopic decon 4, Abund. cutoff 0.50
###    Global Charge Limit: yes 3, Prefer FullScan Result: yes, Export what: 2 (0=non deconv/1=deconv only/2=mixed), NoMSMSSignals: 50, Intensity threshold: 100, NoMSSignals (deconv): 2, NoMSSignals (non-deconv): 20, NormalizeData: no, SingleCharged: no
###
COM=PC_MH_1-A,3_01_27235.d
USERNAME=MW
CHARGE=1+, 2+ and 3+

###	+MS2(760.5851), 40.0eV, 14.7min #4389

###FS:    #m/z: 760.58508 #charge undefined
###MS: 
###MSMS: 
BEGIN IONS
TITLE=+MS2(760.5851), 40.0eV, 14.7min #4389
RTINSECONDS=0
SCANS=
PEPMASS=760.58508	
97.07619	596	
98.98387	1266	
104.10661	18108	
105.11084	1156	
124.99950	32344	
166.06359	988	
183.77699	422	
183.83424	550	
183.92592	418	
183.94208	458	
183.97565	438	
184.00014	592	
184.04732	1400	
184.07342	1444796	
184.10542	18072	
184.15566	23470	
184.17558	1392	
184.21989	7686	
184.26049	1138	
184.29046	3230	
184.32011	846	
184.34757	1348	
184.35511	1752	
184.37881	930	
184.41248	13544	
184.46759	720	
184.49038	670	
184.50688	672	
184.53777	528	
184.59104	436	
184.59688	444	
184.63822	448	
184.68304	450	
184.75960	426	
184.81580	420	
185.07646	58216	
186.07811	4366	
478.32926	2426	
479.33238	436	
496.33946	4150	
497.34454	992	
504.34459	1916	
505.34626	438	
522.35500	1190	
523.35726	512	
577.51948	1438	
578.52117	780	
760.58429	26210	
761.58736	8570	
762.58939	1660	
END IONS

