###	C:\Users\witti\Desktop\RefSpectra\pos\PC16_0_18_1_MH_20eV.mgf
###	G:\20190719_LipidStdsPos\PC_MH_1-A,3_01_27235.d\analysis.baf
###	PC_MH_1-A,3_01_27235.d
###	Instrument: maXis
###	Manufacturer: Bruker
###    PC_MH
###    PeakWidth 5.00, MiniumIntensity 100, S/N 1Apply threshold 0, Threshold 10
###    Retain Residuals no, Create neutrally no,
###    FullScan Parameters: AdductIon (+)+H (-)-H, LowMass 250, HighMass 4000, MaxCharge charge decon 10, MinPeaks 3
###    Perf. isotope decon yes, Max Charge Istopic decon 5, MW agreement 0.00, Abund. cutoff 2.00, Envelope cutoff 75.00
###    MaxRes   Parameters: AdductIon (+)+H (-)-H, LowMass 250, HighMass 4000 
###    Perf. isotope decon yes, Max Charge Istopic decon 5, Abund. cutoff 2.00
###    MSn      Parameters: AdductIon (+)+H (-)-H, LowMass 50, HighMass 2000 
###    Perf. isotope decon yes, Max Charge Istopic decon 4, Abund. cutoff 0.50
###    Global Charge Limit: yes 3, Prefer FullScan Result: yes, Export what: 2 (0=non deconv/1=deconv only/2=mixed), NoMSMSSignals: 50, Intensity threshold: 100, NoMSSignals (deconv): 2, NoMSSignals (non-deconv): 20, NormalizeData: no, SingleCharged: no
###
COM=PC_MH_1-A,3_01_27235.d
USERNAME=MW
CHARGE=1+, 2+ and 3+

###	+MS2(760.5851), 20.0eV, 14.7min #4388

###FS:    #m/z: 760.58508 #charge undefined
###MS: 
###MSMS: 
BEGIN IONS
TITLE=+MS2(760.5851), 20.0eV, 14.7min #4388
RTINSECONDS=0
SCANS=
PEPMASS=760.58508	
104.10680	1548	
124.99970	2290	
184.07333	185762	
185.07651	6338	
186.07642	804	
759.16681	528	
759.23069	758	
759.57248	620	
759.94664	502	
760.00182	538	
760.19018	506	
760.24103	596	
760.31476	918	
760.32467	678	
760.33768	848	
760.37793	1480	
760.42208	1240	
760.47614	1662	
760.58533	695066	
760.75129	15006	
760.79094	1748	
760.88301	6646	
761.02517	5440	
761.14424	4090	
761.17227	2404	
761.20323	2432	
761.27117	8498	
761.42437	2068	
761.46725	2070	
761.58854	289552	
761.64118	4346	
761.75117	3872	
761.80126	1432	
761.88270	2764	
761.98238	1270	
762.02008	1738	
762.13818	1398	
762.27473	2574	
762.38204	594	
762.41412	904	
762.43970	730	
762.45964	796	
762.52353	640	
762.59087	45404	
762.75314	830	
762.87732	514	
762.94217	600	
762.97524	596	
763.27663	620	
763.59336	2218	
END IONS

