###	C:\Users\witti\Desktop\RefSpectra\pos\PC16_0_18_1_MNa_40eV.mgf
###	G:\20190719_LipidStdsPos\PC_MNa_1-A,3_01_27236.d\analysis.baf
###	PC_MNa_1-A,3_01_27236.d
###	Instrument: maXis
###	Manufacturer: Bruker
###    PC_MNa
###    PeakWidth 5.00, MiniumIntensity 100, S/N 1Apply threshold 0, Threshold 10
###    Retain Residuals no, Create neutrally no,
###    FullScan Parameters: AdductIon (+)+H (-)-H, LowMass 250, HighMass 4000, MaxCharge charge decon 10, MinPeaks 3
###    Perf. isotope decon yes, Max Charge Istopic decon 5, MW agreement 0.00, Abund. cutoff 2.00, Envelope cutoff 75.00
###    MaxRes   Parameters: AdductIon (+)+H (-)-H, LowMass 250, HighMass 4000 
###    Perf. isotope decon yes, Max Charge Istopic decon 5, Abund. cutoff 2.00
###    MSn      Parameters: AdductIon (+)+H (-)-H, LowMass 50, HighMass 2000 
###    Perf. isotope decon yes, Max Charge Istopic decon 4, Abund. cutoff 0.50
###    Global Charge Limit: yes 3, Prefer FullScan Result: yes, Export what: 2 (0=non deconv/1=deconv only/2=mixed), NoMSMSSignals: 50, Intensity threshold: 100, NoMSSignals (deconv): 2, NoMSSignals (non-deconv): 20, NormalizeData: no, SingleCharged: no
###
COM=PC_MNa_1-A,3_01_27236.d
USERNAME=MW
CHARGE=1+, 2+ and 3+

###	+MS2(782.5670), 40.0eV, 14.5min #4334

###FS:    #m/z: 782.56702 #charge undefined
###MS: 
###MSMS: 
BEGIN IONS
TITLE=+MS2(782.5670), 40.0eV, 14.5min #4334
RTINSECONDS=0
SCANS=
PEPMASS=782.56702	
95.08553	694	
97.10021	636	
104.10769	182	
107.08598	192	
109.10127	338	
121.09622	252	
125.13112	136	
137.13064	172	
146.98147	32766	
147.98421	552	
164.99307	1564	
184.07437	550	
239.23844	460	
265.25224	434	
441.23901	640	
442.23897	290	
467.25215	998	
468.25539	288	
469.24739	114	
478.33093	1202	
479.33088	414	
480.33404	188	
500.31265	408	
504.34339	1134	
505.34713	666	
506.35233	198	
526.32529	486	
527.32861	116	
577.51880	8342	
578.52161	3468	
579.52307	366	
599.50051	24222	
599.62154	112	
600.29758	114	
600.50387	8512	
601.50661	1094	
639.42825	144	
651.93576	134	
652.43760	136	
723.49283	15990	
724.49733	5160	
725.50005	760	
780.55325	112	
782.56665	11132	
783.56894	4542	
784.57530	582	
799.53994	212	
800.34672	114	
800.54954	180	
1082.77913	116	
END IONS

